#wavelength,transmission
13733	0.000546791
13734	0.000554235
13735	0.00056169
13736	0.000569142
13737	0.000576575
13738	0.000584011
13739	0.000591437
13740	0.00059888
13741	0.000606348
13742	0.00061382
13743	0.000621283
13744	0.000629405
13745	0.000639546
13746	0.000649664
13747	0.000659787
13748	0.000669898
13749	0.000680035
13750	0.000690138
13751	0.000700191
13752	0.000710229
13753	0.000720281
13754	0.000730318
13755	0.00074035
13756	0.000750377
13757	0.000760399
13758	0.000770426
13759	0.000780428
13760	0.000790435
13761	0.000800426
13762	0.000810433
13763	0.000820424
13764	0.000834896
13765	0.000863695
13766	0.000892479
13767	0.000921277
13768	0.000950005
13769	0.000978746
13770	0.001007445
13771	0.001036184
13772	0.001064882
13773	0.001093564
13774	0.001122204
13775	0.001150886
13776	0.001179524
13777	0.001208149
13778	0.001236759
13779	0.001265354
13780	0.001293935
13781	0.001322501
13782	0.001351053
13783	0.001379563
13784	0.001408747
13785	0.001439984
13786	0.001471205
13787	0.001502409
13788	0.001533598
13789	0.001564771
13790	0.001595928
13791	0.001627069
13792	0.001658164
13793	0.001689303
13794	0.001720398
13795	0.001751475
13796	0.001782536
13797	0.001813582
13798	0.001844612
13799	0.001875626
13800	0.001906624
13801	0.001937719
13802	0.001968801
13803	0.001999871
13804	0.002032021
13805	0.002067887
13806	0.002103738
13807	0.002139575
13808	0.0021754
13809	0.002211208
13810	0.002247003
13811	0.002282785
13812	0.002318552
13813	0.002354305
13814	0.002390008
13815	0.002425768
13816	0.002461478
13817	0.002497176
13818	0.002532859
13819	0.002568528
13820	0.002604181
13821	0.002639821
13822	0.002675449
13823	0.002711059
13824	0.002754889
13825	0.002827596
13826	0.002900277
13827	0.002972926
13828	0.003045549
13829	0.003118141
13830	0.003190706
13831	0.003264538
13832	0.0033384
13833	0.003412291
13834	0.003486212
13835	0.003560162
13836	0.003634214
13837	0.00370815
13838	0.00378219
13839	0.003856258
13840	0.003930357
13841	0.004004485
13842	0.004078641
13843	0.004152828
13844	0.004238255
13845	0.004364584
13846	0.004490717
13847	0.004617023
13848	0.00474338
13849	0.004869788
13850	0.004996245
13851	0.005123172
13852	0.00525017
13853	0.00537724
13854	0.005504382
13855	0.005631595
13856	0.00575888
13857	0.005886234
13858	0.006013785
13859	0.006141159
13860	0.006268729
13861	0.006395722
13862	0.006523013
13863	0.006650233
13864	0.006795818
13865	0.007009998
13866	0.007224265
13867	0.007438825
13868	0.007653052
13869	0.007867574
13870	0.008081972
13871	0.008296875
13872	0.008511653
13873	0.008726518
13874	0.008941256
13875	0.009156507
13876	0.009371835
13877	0.00958683
13878	0.009802124
13879	0.01001729
13880	0.01023318
13881	0.01044851
13882	0.01066415
13883	0.01087966
13884	0.01112652
13885	0.01149319
13886	0.0118593
13887	0.0122259
13888	0.0125923
13889	0.01295992
13890	0.0133266
13891	0.01369379
13892	0.01406077
13893	0.01442862
13894	0.01479625
13895	0.01516403
13896	0.01553195
13897	0.01589966
13898	0.01626859
13899	0.01663659
13900	0.0170051
13901	0.01737339
13902	0.01774291
13903	0.0181115
13904	0.01854534
13905	0.01923812
13906	0.01993049
13907	0.02062517
13908	0.02131809
13909	0.02201197
13910	0.02270544
13911	0.02340122
13912	0.02409524
13913	0.02479022
13914	0.02548479
13915	0.026181
13916	0.02687748
13917	0.02757289
13918	0.02826923
13919	0.0289652
13920	0.02966346
13921	0.03035996
13922	0.03105742
13923	0.03175448
13924	0.03261497
13925	0.03414748
13926	0.0356776
13927	0.03720983
13928	0.03874118
13929	0.04027762
13930	0.04181015
13931	0.04334483
13932	0.04487859
13933	0.04641597
13934	0.04795247
13935	0.04948957
13936	0.05102728
13937	0.0525656
13938	0.054106
13939	0.05564404
13940	0.0571842
13941	0.05872341
13942	0.06026627
13943	0.06180823
13944	0.06354808
13945	0.06613269
13946	0.06871832
13947	0.07130753
13948	0.07389271
13949	0.0764814
13950	0.07906861
13951	0.08166191
13952	0.08425374
13953	0.08684653
13954	0.08944033
13955	0.09203521
13956	0.09463111
13957	0.097228
13958	0.09982594
13959	0.1024249
13960	0.1050249
13961	0.1076259
13962	0.1102279
13963	0.1128284
13964	0.1157663
13965	0.120186
13966	0.1246075
13967	0.1290306
13968	0.1334556
13969	0.1378822
13970	0.1423107
13971	0.1467408
13972	0.1511684
13973	0.1556064
13974	0.1600419
13975	0.1644789
13976	0.1689179
13977	0.1733585
13978	0.1778009
13979	0.182245
13980	0.1866909
13981	0.1911385
13982	0.1955879
13983	0.200039
13984	0.204752
13985	0.2106698
13986	0.21659
13987	0.2225125
13988	0.2284374
13989	0.2343645
13990	0.240294
13991	0.2462259
13992	0.2521601
13993	0.2580966
13994	0.2640412
13995	0.2699765
13996	0.27592
13997	0.2818658
13998	0.287814
13999	0.2937644
14000	0.2997173
14001	0.3056425
14002	0.3115689
14003	0.3174965
14004	0.3232199
14005	0.3279611
14006	0.3327034
14007	0.3374466
14008	0.3421909
14009	0.3469359
14010	0.351682
14011	0.3564289
14012	0.3611769
14013	0.3659256
14014	0.3706755
14015	0.3754262
14016	0.3801825
14017	0.3849305
14018	0.3896839
14019	0.3944384
14020	0.3991939
14021	0.4039502
14022	0.4087075
14023	0.4134658
14024	0.4179338
14025	0.4209537
14026	0.4239681
14027	0.4269862
14028	0.430005
14029	0.4330242
14030	0.436044
14031	0.4390644
14032	0.4420855
14033	0.4451071
14034	0.4481322
14035	0.4511521
14036	0.4541756
14037	0.4571996
14038	0.4602271
14039	0.4632492
14040	0.4662751
14041	0.4692985
14042	0.4723284
14043	0.4753559
14044	0.4780594
14045	0.4790849
14046	0.4801106
14047	0.4811375
14048	0.4821626
14049	0.4831889
14050	0.4842144
14051	0.4852421
14052	0.4862689
14053	0.4872961
14054	0.4883234
14055	0.4893509
14056	0.4903795
14057	0.4914065
14058	0.4924344
14059	0.4934617
14060	0.4944922
14061	0.4955199
14062	0.4965487
14063	0.4975768
14064	0.498477
14065	0.4986759
14066	0.498874
14067	0.4990727
14068	0.499271
14069	0.4994698
14070	0.4996684
14071	0.4999078
14072	0.5001473
14073	0.5003871
14074	0.500627
14075	0.5008667
14076	0.5011064
14077	0.5013461
14078	0.5015864
14079	0.5018263
14080	0.5020664
14081	0.5022653
14082	0.5024648
14083	0.5026639
14084	0.5028313
14085	0.50282
14086	0.5028089
14087	0.5027977
14088	0.5027866
14089	0.5027755
14090	0.5027642
14091	0.5027529
14092	0.5027416
14093	0.5027304
14094	0.5027192
14095	0.5027079
14096	0.5026966
14097	0.5026854
14098	0.5026742
14099	0.5026628
14100	0.5026514
14101	0.5026401
14102	0.5026288
14103	0.5026174
14104	0.5025983
14105	0.5025342
14106	0.5024702
14107	0.502406
14108	0.5023419
14109	0.5022777
14110	0.5022137
14111	0.5021494
14112	0.5020853
14113	0.502021
14114	0.5019568
14115	0.5018926
14116	0.5018281
14117	0.5017639
14118	0.5016996
14119	0.501635
14120	0.5015708
14121	0.5015063
14122	0.5014418
14123	0.5013773
14124	0.5013326
14125	0.5014099
14126	0.5014872
14127	0.5015644
14128	0.5016418
14129	0.5017189
14130	0.5017961
14131	0.5018736
14132	0.5019508
14133	0.5020279
14134	0.5021054
14135	0.5021828
14136	0.5022601
14137	0.5023376
14138	0.5024148
14139	0.5024921
14140	0.5025696
14141	0.502647
14142	0.5027245
14143	0.5028017
14144	0.5028908
14145	0.5030546
14146	0.5032182
14147	0.5033818
14148	0.5035458
14149	0.5037094
14150	0.5038735
14151	0.5040374
14152	0.5042011
14153	0.504365
14154	0.504529
14155	0.5046928
14156	0.5048569
14157	0.5050207
14158	0.505185
14159	0.5053492
14160	0.5055133
14161	0.5056772
14162	0.5058414
14163	0.5060056
14164	0.506188
14165	0.5064945
14166	0.5068012
14167	0.5071079
14168	0.5074146
14169	0.5077214
14170	0.5080282
14171	0.5083349
14172	0.5086417
14173	0.5089488
14174	0.5092561
14175	0.5095627
14176	0.5098698
14177	0.510177
14178	0.510484
14179	0.5107914
14180	0.5110986
14181	0.5114061
14182	0.5117134
14183	0.5120211
14184	0.5123452
14185	0.5127869
14186	0.5132287
14187	0.5136707
14188	0.5141127
14189	0.5145547
14190	0.5149969
14191	0.5153969
14192	0.5157971
14193	0.5161972
14194	0.5165976
14195	0.5169978
14196	0.5173982
14197	0.5177979
14198	0.518198
14199	0.5185981
14200	0.5189983
14201	0.5193937
14202	0.5197892
14203	0.5201846
14204	0.520586
14205	0.5210323
14206	0.5214777
14207	0.5219236
14208	0.5223693
14209	0.5228152
14210	0.5232611
14211	0.5237069
14212	0.5241528
14213	0.5245987
14214	0.525045
14215	0.5254904
14216	0.5259363
14217	0.5263822
14218	0.5268285
14219	0.5272741
14220	0.5277199
14221	0.5281654
14222	0.5286118
14223	0.5290577
14224	0.5294985
14225	0.5298997
14226	0.5303008
14227	0.5307024
14228	0.5311033
14229	0.5315044
14230	0.5319051
14231	0.5323067
14232	0.532708
14233	0.5331092
14234	0.5335103
14235	0.5339115
14236	0.5343132
14237	0.5347139
14238	0.5351151
14239	0.5355159
14240	0.535918
14241	0.5363188
14242	0.53672
14243	0.537121
14244	0.5375087
14245	0.5377815
14246	0.5380538
14247	0.5383263
14248	0.5385985
14249	0.5388717
14250	0.539144
14251	0.5394164
14252	0.5396888
14253	0.5399615
14254	0.5402343
14255	0.5405067
14256	0.5407791
14257	0.5410516
14258	0.5413245
14259	0.5415969
14260	0.5418694
14261	0.5421418
14262	0.542415
14263	0.5426872
14264	0.542953
14265	0.5431584
14266	0.5433635
14267	0.5435695
14268	0.5437745
14269	0.54398
14270	0.5441854
14271	0.5443911
14272	0.5445963
14273	0.5448017
14274	0.5450071
14275	0.5452124
14276	0.5454184
14277	0.5456235
14278	0.5458289
14279	0.5460342
14280	0.5462399
14281	0.5464454
14282	0.5466507
14283	0.5468561
14284	0.5470464
14285	0.5470923
14286	0.5471381
14287	0.5471841
14288	0.5472299
14289	0.5472758
14290	0.5473217
14291	0.5473677
14292	0.5474135
14293	0.5474594
14294	0.5475054
14295	0.5475512
14296	0.5475972
14297	0.547643
14298	0.547689
14299	0.5477349
14300	0.5477808
14301	0.5478266
14302	0.5478725
14303	0.5479183
14304	0.5479606
14305	0.5479674
14306	0.5479739
14307	0.5479807
14308	0.5479875
14309	0.5479941
14310	0.5480008
14311	0.5480075
14312	0.5480143
14313	0.5480208
14314	0.5480278
14315	0.5480345
14316	0.548041
14317	0.5480478
14318	0.5480546
14319	0.5480612
14320	0.548068
14321	0.5480745
14322	0.5480813
14323	0.5480879
14324	0.5480956
14325	0.5481134
14326	0.5481314
14327	0.5481493
14328	0.548167
14329	0.5481848
14330	0.5482028
14331	0.5482207
14332	0.5482386
14333	0.5482564
14334	0.5482744
14335	0.5482923
14336	0.5483102
14337	0.5483283
14338	0.5483459
14339	0.5483639
14340	0.5483818
14341	0.5483998
14342	0.5484176
14343	0.5484354
14344	0.5484527
14345	0.5484622
14346	0.5484717
14347	0.5484811
14348	0.5484905
14349	0.5484999
14350	0.5485094
14351	0.548519
14352	0.5485284
14353	0.5485379
14354	0.5485473
14355	0.5485567
14356	0.5485661
14357	0.5485757
14358	0.5485854
14359	0.548595
14360	0.5486044
14361	0.5486137
14362	0.5486233
14363	0.5486327
14364	0.5486457
14365	0.5487027
14366	0.5487598
14367	0.548817
14368	0.5488741
14369	0.5489314
14370	0.5489882
14371	0.5490454
14372	0.5491024
14373	0.5491594
14374	0.5492166
14375	0.5492738
14376	0.5493307
14377	0.5493879
14378	0.5494449
14379	0.549502
14380	0.549559
14381	0.549616
14382	0.5496731
14383	0.5497305
14384	0.5497881
14385	0.5498537
14386	0.5499192
14387	0.5499846
14388	0.55005
14389	0.5501156
14390	0.550181
14391	0.5502015
14392	0.5502219
14393	0.5502424
14394	0.5502629
14395	0.5502836
14396	0.5503041
14397	0.5503244
14398	0.5503449
14399	0.5503652
14400	0.5503857
14401	0.5504407
14402	0.5504959
14403	0.5505507
14404	0.5506039
14405	0.5506308
14406	0.5506581
14407	0.5506849
14408	0.550712
14409	0.550739
14410	0.550766
14411	0.5507932
14412	0.5508199
14413	0.5508471
14414	0.5508741
14415	0.5509011
14416	0.5509281
14417	0.5509551
14418	0.5509821
14419	0.5510091
14420	0.5510361
14421	0.5510631
14422	0.5510901
14423	0.5511169
14424	0.5511434
14425	0.5511592
14426	0.5511751
14427	0.5511908
14428	0.5512066
14429	0.5512224
14430	0.5512382
14431	0.5512539
14432	0.5512697
14433	0.5512857
14434	0.5513014
14435	0.5513173
14436	0.5513331
14437	0.5513488
14438	0.5513646
14439	0.5513803
14440	0.5513962
14441	0.551412
14442	0.5514279
14443	0.5514435
14444	0.551459
14445	0.5514693
14446	0.5514796
14447	0.5514897
14448	0.5514999
14449	0.55151
14450	0.5515202
14451	0.5515303
14452	0.5515406
14453	0.5515508
14454	0.551561
14455	0.5515712
14456	0.5515814
14457	0.5515915
14458	0.5516016
14459	0.551612
14460	0.5516222
14461	0.5516323
14462	0.5516425
14463	0.5516528
14464	0.551658
14465	0.5515704
14466	0.5514827
14467	0.5513951
14468	0.5513074
14469	0.5512194
14470	0.5511319
14471	0.5510442
14472	0.5509565
14473	0.5508686
14474	0.5507809
14475	0.5506933
14476	0.5506056
14477	0.5505181
14478	0.5504301
14479	0.5503425
14480	0.5502548
14481	0.5501672
14482	0.5500794
14483	0.5499918
14484	0.5499026
14485	0.5497842
14486	0.5496657
14487	0.5495473
14488	0.5494291
14489	0.5493103
14490	0.5491922
14491	0.5490737
14492	0.5489551
14493	0.5488368
14494	0.5487182
14495	0.5485998
14496	0.5484812
14497	0.548363
14498	0.5482446
14499	0.5481262
14500	0.5480077
14501	0.5478701
14502	0.5477324
14503	0.5475948
14504	0.5474557
14505	0.5472819
14506	0.5471079
14507	0.5469341
14508	0.5467601
14509	0.5465862
14510	0.5464124
14511	0.5462834
14512	0.5461545
14513	0.5460251
14514	0.5458959
14515	0.5457668
14516	0.5456378
14517	0.5455085
14518	0.5453795
14519	0.5452503
14520	0.545121
14521	0.5449917
14522	0.5448626
14523	0.5447332
14524	0.5446048
14525	0.5445035
14526	0.5444022
14527	0.5443009
14528	0.5441996
14529	0.5440981
14530	0.5439968
14531	0.5438955
14532	0.5437943
14533	0.5436928
14534	0.5435914
14535	0.5434899
14536	0.5433887
14537	0.5432873
14538	0.5431859
14539	0.5430844
14540	0.5429831
14541	0.5428818
14542	0.5427803
14543	0.5426791
14544	0.5425776
14545	0.5424818
14546	0.5423858
14547	0.5422899
14548	0.5421939
14549	0.542098
14550	0.5420021
14551	0.5419064
14552	0.5418106
14553	0.5417144
14554	0.5416185
14555	0.5415224
14556	0.5414266
14557	0.5413306
14558	0.541235
14559	0.5411389
14560	0.5410429
14561	0.5409468
14562	0.5408509
14563	0.540755
14564	0.54066
14565	0.5406172
14566	0.5405742
14567	0.5405313
14568	0.5404888
14569	0.5404461
14570	0.5404032
14571	0.540316
14572	0.5402289
14573	0.5401418
14574	0.5400547
14575	0.5399676
14576	0.5398805
14577	0.5397933
14578	0.5397062
14579	0.5396193
14580	0.5395322
14581	0.5394892
14582	0.5394465
14583	0.5394039
14584	0.5393622
14585	0.5394005
14586	0.5394388
14587	0.5394771
14588	0.5395153
14589	0.5395536
14590	0.5395919
14591	0.5396302
14592	0.5396686
14593	0.5397069
14594	0.5397455
14595	0.5397838
14596	0.5398222
14597	0.5398604
14598	0.5398987
14599	0.539937
14600	0.5399753
14601	0.540008
14602	0.5400402
14603	0.5400726
14604	0.5401055
14605	0.540208
14606	0.5403103
14607	0.5404128
14608	0.5405151
14609	0.5406176
14610	0.5407202
14611	0.5408225
14612	0.5409249
14613	0.5410272
14614	0.5411298
14615	0.5412323
14616	0.5413347
14617	0.5414371
14618	0.5415397
14619	0.5416421
14620	0.5417446
14621	0.541847
14622	0.5419497
14623	0.5420521
14624	0.5421546
14625	0.5422851
14626	0.5424156
14627	0.5425464
14628	0.5426768
14629	0.5428073
14630	0.5429377
14631	0.5430685
14632	0.543199
14633	0.5433294
14634	0.5434601
14635	0.5435905
14636	0.5437213
14637	0.5438519
14638	0.5439824
14639	0.5441128
14640	0.5442438
14641	0.5443297
14642	0.5444157
14643	0.5445015
14644	0.5445874
14645	0.5447043
14646	0.5448209
14647	0.5449376
14648	0.5450542
14649	0.5451711
14650	0.5452877
14651	0.5454491
14652	0.5456103
14653	0.5457718
14654	0.5459334
14655	0.5460947
14656	0.546256
14657	0.5464174
14658	0.5465791
14659	0.5467403
14660	0.5469019
14661	0.5470631
14662	0.5472248
14663	0.5473862
14664	0.5475476
14665	0.5476729
14666	0.547798
14667	0.5479231
14668	0.5480481
14669	0.5481732
14670	0.5482982
14671	0.5484233
14672	0.5485485
14673	0.5486735
14674	0.5487986
14675	0.5489237
14676	0.5490486
14677	0.549174
14678	0.549299
14679	0.5494239
14680	0.5495493
14681	0.5496745
14682	0.5497995
14683	0.5499246
14684	0.5500498
14685	0.5501223
14686	0.5501941
14687	0.550266
14688	0.5503378
14689	0.5504096
14690	0.5504814
14691	0.5505534
14692	0.5506252
14693	0.5506973
14694	0.5507692
14695	0.550841
14696	0.5509128
14697	0.5509847
14698	0.5510566
14699	0.5511285
14700	0.5512004
14701	0.551227
14702	0.5512537
14703	0.5512803
14704	0.5513071
14705	0.551251
14706	0.5511935
14707	0.5511361
14708	0.5510785
14709	0.551021
14710	0.5509637
14711	0.5509514
14712	0.550939
14713	0.5509267
14714	0.5509146
14715	0.5509023
14716	0.5508903
14717	0.5508779
14718	0.5508655
14719	0.5508533
14720	0.5508411
14721	0.5508288
14722	0.5508164
14723	0.5508041
14724	0.5507918
14725	0.5507084
14726	0.5506232
14727	0.5505378
14728	0.5504528
14729	0.5503672
14730	0.5502821
14731	0.5501968
14732	0.5501117
14733	0.5500264
14734	0.5499412
14735	0.5498559
14736	0.5497708
14737	0.5496857
14738	0.5496003
14739	0.5495149
14740	0.5494297
14741	0.5493447
14742	0.5492593
14743	0.549174
14744	0.5490888
14745	0.5489543
14746	0.5488186
14747	0.5486826
14748	0.5485468
14749	0.548411
14750	0.5482752
14751	0.5480942
14752	0.5479136
14753	0.5477326
14754	0.5475516
14755	0.5473708
14756	0.5471901
14757	0.5470093
14758	0.5468287
14759	0.5466479
14760	0.5464673
14761	0.5463316
14762	0.5461956
14763	0.5460596
14764	0.5459238
14765	0.5456769
14766	0.5454261
14767	0.5451749
14768	0.5449244
14769	0.5446736
14770	0.5444227
14771	0.5441718
14772	0.5439207
14773	0.5436698
14774	0.5434187
14775	0.5431678
14776	0.5429164
14777	0.5426658
14778	0.5424146
14779	0.5421638
14780	0.5419126
14781	0.5416614
14782	0.5414104
14783	0.5411595
14784	0.5409083
14785	0.5406976
14786	0.5404887
14787	0.5402797
14788	0.5400708
14789	0.5398613
14790	0.5396524
14791	0.539399
14792	0.5391461
14793	0.5388923
14794	0.5386388
14795	0.5383861
14796	0.5381327
14797	0.5378796
14798	0.537626
14799	0.5373728
14800	0.5371197
14801	0.5369054
14802	0.5366909
14803	0.5364763
14804	0.5362622
14805	0.5360557
14806	0.5358499
14807	0.5356435
14808	0.5354377
14809	0.5352316
14810	0.5350258
14811	0.5348193
14812	0.5346135
14813	0.5344073
14814	0.5342014
14815	0.5339956
14816	0.5337889
14817	0.533583
14818	0.5333771
14819	0.5331711
14820	0.5329645
14821	0.5327587
14822	0.5325525
14823	0.5323465
14824	0.5321405
14825	0.5319501
14826	0.5317609
14827	0.5315717
14828	0.5313825
14829	0.5311929
14830	0.5310037
14831	0.5307707
14832	0.530538
14833	0.5303048
14834	0.5300719
14835	0.529839
14836	0.5296062
14837	0.5293735
14838	0.5291405
14839	0.5289078
14840	0.5286753
14841	0.5284862
14842	0.5282966
14843	0.5281073
14844	0.5279182
14845	0.5278323
14846	0.5277525
14847	0.5276724
14848	0.5275926
14849	0.5275128
14850	0.527433
14851	0.527353
14852	0.527273
14853	0.5271931
14854	0.5271133
14855	0.5270335
14856	0.5269535
14857	0.5268736
14858	0.5267938
14859	0.5267139
14860	0.5266339
14861	0.526554
14862	0.5264741
14863	0.5263941
14864	0.5263143
14865	0.5262895
14866	0.5262687
14867	0.5262476
14868	0.5262267
14869	0.5262055
14870	0.5261847
14871	0.5261205
14872	0.5260561
14873	0.5259917
14874	0.5259272
14875	0.525863
14876	0.5257987
14877	0.5257345
14878	0.5256703
14879	0.5256059
14880	0.5255417
14881	0.5255206
14882	0.5254995
14883	0.5254787
14884	0.5254576
14885	0.5255019
14886	0.525551
14887	0.5256001
14888	0.5256491
14889	0.5256984
14890	0.5257474
14891	0.5257965
14892	0.5258455
14893	0.5258948
14894	0.5259437
14895	0.5259929
14896	0.5260419
14897	0.5260912
14898	0.5261402
14899	0.5261893
14900	0.5262385
14901	0.5262876
14902	0.5263367
14903	0.5263857
14904	0.5264347
14905	0.5265513
14906	0.5266735
14907	0.5267954
14908	0.5269175
14909	0.5270395
14910	0.5271619
14911	0.5272404
14912	0.5273188
14913	0.5273976
14914	0.5274761
14915	0.5275545
14916	0.5276332
14917	0.5277117
14918	0.52779
14919	0.5278687
14920	0.5279472
14921	0.5280691
14922	0.5281909
14923	0.528313
14924	0.5284348
14925	0.5285751
14926	0.5287166
14927	0.5288581
14928	0.5289997
14929	0.5291412
14930	0.529283
14931	0.5294246
14932	0.5295662
14933	0.5297079
14934	0.5298496
14935	0.5299911
14936	0.5301329
14937	0.5302745
14938	0.530416
14939	0.5305578
14940	0.5306994
14941	0.5308411
14942	0.5309829
14943	0.5311247
14944	0.5312663
14945	0.5314646
14946	0.5316678
14947	0.5318714
14948	0.5320745
14949	0.5322778
14950	0.532481
14951	0.5326407
14952	0.5328
14953	0.5329595
14954	0.5331188
14955	0.5332781
14956	0.5334376
14957	0.5335967
14958	0.5337561
14959	0.5339153
14960	0.5340747
14961	0.5342779
14962	0.5344812
14963	0.5346845
14964	0.5348877
14965	0.5350859
14966	0.5352835
